# From: http://henke.lbl.gov/optical_constants/gastrn2.html
# N1.562O.42C.0003Ar.0094 Pressure=760. Path=1. cm
# Photon Energy (eV), Transmission
    8000.0      0.98862
    8040.0      0.98879
    8080.0      0.98896
    8120.0      0.98913
    8160.0      0.98929
    8200.0      0.98945
    8240.0      0.98960
    8280.0      0.98975
    8320.0      0.98990
    8360.0      0.99005
    8400.0      0.99019
    8440.0      0.99033
    8480.0      0.99047
    8520.0      0.99061
    8560.0      0.99074
    8600.0      0.99087
    8640.0      0.99100
    8680.0      0.99113
    8720.0      0.99125
    8760.0      0.99137
    8800.0      0.99149
    8840.0      0.99161
    8880.0      0.99172
    8920.0      0.99183
    8960.0      0.99194
    9000.0      0.99205
    9040.0      0.99216
    9080.0      0.99226
    9120.0      0.99237
    9160.0      0.99247
    9200.0      0.99257
    9240.0      0.99266
    9280.0      0.99276
    9320.0      0.99285
    9360.0      0.99295
    9400.0      0.99304
    9440.0      0.99313
    9480.0      0.99322
    9520.0      0.99330
    9560.0      0.99339
    9600.0      0.99347
    9640.0      0.99355
    9680.0      0.99363
    9720.0      0.99371
    9760.0      0.99379
    9800.0      0.99387
    9840.0      0.99394
    9880.0      0.99402
    9920.0      0.99409
    9960.0      0.99416
    10000.      0.99423
    10040.      0.99430
    10080.      0.99437
    10120.      0.99444
    10160.      0.99450
    10200.      0.99457
    10240.      0.99463
    10280.      0.99470
    10320.      0.99476
    10360.      0.99482
    10400.      0.99488
    10440.      0.99494
    10480.      0.99500
    10520.      0.99506
    10560.      0.99511
    10600.      0.99517
    10640.      0.99522
    10680.      0.99528
    10720.      0.99533
    10760.      0.99538
    10800.      0.99543
    10840.      0.99548
    10880.      0.99553
    10920.      0.99558
    10960.      0.99563
    11000.      0.99568
    11040.      0.99573
    11080.      0.99577
    11120.      0.99582
    11160.      0.99587
    11200.      0.99591
    11240.      0.99595
    11280.      0.99600
    11320.      0.99604
    11360.      0.99608
    11400.      0.99612
    11440.      0.99616
    11480.      0.99620
    11520.      0.99624
    11560.      0.99628
    11600.      0.99632
    11640.      0.99636
    11680.      0.99640
    11720.      0.99643
    11760.      0.99647
    11800.      0.99650
    11840.      0.99654
    11880.      0.99657
    11920.      0.99661
    11960.      0.99664
    12000.      0.99668
    12040.      0.99671
    12080.      0.99674
    12120.      0.99677
    12160.      0.99681
    12200.      0.99684
    12240.      0.99687
    12280.      0.99690
    12320.      0.99693
    12360.      0.99696
    12400.      0.99699
    12440.      0.99702
    12480.      0.99704
    12520.      0.99707
    12560.      0.99710
    12600.      0.99713
    12640.      0.99715
    12680.      0.99718
    12720.      0.99721
    12760.      0.99723
    12800.      0.99726
    12840.      0.99728
    12880.      0.99731
    12920.      0.99733
    12960.      0.99736
    13000.      0.99738
    13040.      0.99741
    13080.      0.99743
    13120.      0.99745
    13160.      0.99747
    13200.      0.99750
    13240.      0.99752
    13280.      0.99754
    13320.      0.99756
    13360.      0.99758
    13400.      0.99761
    13440.      0.99763
    13480.      0.99765
    13520.      0.99767
    13560.      0.99769
    13600.      0.99771
    13640.      0.99773
    13680.      0.99775
    13720.      0.99777
    13760.      0.99778
    13800.      0.99780
    13840.      0.99782
    13880.      0.99784
    13920.      0.99786
    13960.      0.99788
    14000.      0.99789
