# Aluminum attenuation length, from http://henke.lbl.gov/optical_constants/atten2.html
# Al Density=2.699, Angle=90.deg
# Photon Energy (eV), Atten Length (microns)
   9000.00  109.686
   9012.00  110.117
   9024.00  110.550
   9036.00  110.983
   9048.00  111.417
   9060.00  111.853
   9072.00  112.289
   9084.00  112.727
   9096.00  113.165
   9108.00  113.605
   9120.00  114.046
   9132.00  114.489
   9144.00  114.932
   9156.00  115.376
   9168.00  115.822
   9180.00  116.269
   9192.00  116.717
   9204.00  117.166
   9216.00  117.616
   9228.00  118.067
   9240.00  118.520
   9252.00  118.974
   9264.00  119.428
   9276.00  119.884
   9288.00  120.341
   9300.00  120.799
   9312.00  121.259
   9324.00  121.720
   9336.00  122.182
   9348.00  122.645
   9360.00  123.110
   9372.00  123.575
   9384.00  124.042
   9396.00  124.510
   9408.00  124.979
   9420.00  125.448
   9432.00  125.920
   9444.00  126.392
   9456.00  126.866
   9468.00  127.341
   9480.00  127.817
   9492.00  128.294
   9504.00  128.772
   9516.00  129.251
   9528.00  129.732
   9540.00  130.214
   9552.00  130.697
   9564.00  131.181
   9576.00  131.666
   9588.00  132.153
   9600.00  132.640
   9612.00  133.130
   9624.00  133.621
   9636.00  134.113
   9648.00  134.606
   9660.00  135.100
   9672.00  135.596
   9684.00  136.092
   9696.00  136.590
   9708.00  137.090
   9720.00  137.590
   9732.00  138.091
   9744.00  138.594
   9756.00  139.098
   9768.00  139.603
   9780.00  140.109
   9792.00  140.616
   9804.00  141.125
   9816.00  141.635
   9828.00  142.146
   9840.00  142.658
   9852.00  143.171
   9864.00  143.686
   9876.00  144.201
   9888.00  144.719
   9900.00  145.237
   9912.00  145.756
   9924.00  146.277
   9936.00  146.800
   9948.00  147.324
   9960.00  147.849
   9972.00  148.375
   9984.00  148.903
   9996.00  149.431
   10008.0  149.961
   10020.0  150.493
   10032.0  151.025
   10044.0  151.559
   10056.0  152.094
   10068.0  152.630
   10080.0  153.168
   10092.0  153.707
   10104.0  154.248
   10116.0  154.789
   10128.0  155.332
   10140.0  155.876
   10152.0  156.421
   10164.0  156.968
   10176.0  157.515
   10188.0  158.065
   10200.0  158.615
   10212.0  159.166
   10224.0  159.719
   10236.0  160.273
   10248.0  160.829
   10260.0  161.386
   10272.0  161.944
   10284.0  162.504
   10296.0  163.065
   10308.0  163.627
   10320.0  164.190
   10332.0  164.755
   10344.0  165.321
   10356.0  165.888
   10368.0  166.456
   10380.0  167.026
   10392.0  167.597
   10404.0  168.169
   10416.0  168.743
   10428.0  169.318
   10440.0  169.895
   10452.0  170.473
   10464.0  171.052
   10476.0  171.632
   10488.0  172.213
   10500.0  172.796
   10512.0  173.380
   10524.0  173.966
   10536.0  174.552
   10548.0  175.141
   10560.0  175.730
   10572.0  176.320
   10584.0  176.913
   10596.0  177.507
   10608.0  178.101
   10620.0  178.698
   10632.0  179.296
   10644.0  179.895
   10656.0  180.495
   10668.0  181.097
   10680.0  181.699
   10692.0  182.304
   10704.0  182.909
   10716.0  183.516
   10728.0  184.124
   10740.0  184.734
   10752.0  185.345
   10764.0  185.957
   10776.0  186.572
   10788.0  187.187
   10800.0  187.803
   10812.0  188.421
   10824.0  189.040
   10836.0  189.661
   10848.0  190.283
   10860.0  190.906
   10872.0  191.530
   10884.0  192.156
   10896.0  192.783
   10908.0  193.412
   10920.0  194.042
   10932.0  194.674
   10944.0  195.307
   10956.0  195.941
   10968.0  196.577
   10980.0  197.214
   10992.0  197.852
   11004.0  198.492
   11016.0  199.133
   11028.0  199.776
   11040.0  200.420
   11052.0  201.065
   11064.0  201.711
   11076.0  202.360
   11088.0  203.009
   11100.0  203.660
   11112.0  204.312
   11124.0  204.966
   11136.0  205.622
   11148.0  206.278
   11160.0  206.936
   11172.0  207.596
   11184.0  208.256
   11196.0  208.918
   11208.0  209.582
   11220.0  210.247
   11232.0  210.913
   11244.0  211.581
   11256.0  212.250
   11268.0  212.920
   11280.0  213.593
   11292.0  214.266
   11304.0  214.941
   11316.0  215.618
   11328.0  216.296
   11340.0  216.976
   11352.0  217.656
   11364.0  218.338
   11376.0  219.022
   11388.0  219.707
   11400.0  220.393
   11412.0  221.081
   11424.0  221.770
   11436.0  222.461
   11448.0  223.153
   11460.0  223.846
   11472.0  224.542
   11484.0  225.238
   11496.0  225.936
   11508.0  226.635
   11520.0  227.336
   11532.0  228.038
   11544.0  228.741
   11556.0  229.447
   11568.0  230.153
   11580.0  230.861
   11592.0  231.570
   11604.0  232.280
   11616.0  232.993
   11628.0  233.706
   11640.0  234.421
   11652.0  235.138
   11664.0  235.856
   11676.0  236.576
   11688.0  237.297
   11700.0  238.020
   11712.0  238.744
   11724.0  239.470
   11736.0  240.197
   11748.0  240.925
   11760.0  241.655
   11772.0  242.386
   11784.0  243.119
   11796.0  243.853
   11808.0  244.589
   11820.0  245.326
   11832.0  246.065
   11844.0  246.805
   11856.0  247.548
   11868.0  248.291
   11880.0  249.036
   11892.0  249.783
   11904.0  250.531
   11916.0  251.281
   11928.0  252.031
   11940.0  252.784
   11952.0  253.538
   11964.0  254.293
   11976.0  255.050
   11988.0  255.808
   12000.0  256.568
   12012.0  257.329
   12024.0  258.092
   12036.0  258.857
   12048.0  259.623
   12060.0  260.390
   12072.0  261.159
   12084.0  261.929
   12096.0  262.701
   12108.0  263.475
   12120.0  264.250
   12132.0  265.026
   12144.0  265.804
   12156.0  266.583
   12168.0  267.364
   12180.0  268.146
   12192.0  268.930
   12204.0  269.715
   12216.0  270.502
   12228.0  271.292
   12240.0  272.082
   12252.0  272.874
   12264.0  273.668
   12276.0  274.463
   12288.0  275.260
   12300.0  276.059
   12312.0  276.858
   12324.0  277.660
   12336.0  278.463
   12348.0  279.267
   12360.0  280.073
   12372.0  280.880
   12384.0  281.689
   12396.0  282.499
   12408.0  283.311
   12420.0  284.124
   12432.0  284.940
   12444.0  285.757
   12456.0  286.575
   12468.0  287.395
   12480.0  288.216
   12492.0  289.039
   12504.0  289.863
   12516.0  290.689
   12528.0  291.517
   12540.0  292.345
   12552.0  293.176
   12564.0  294.008
   12576.0  294.842
   12588.0  295.677
   12600.0  296.513
   12612.0  297.351
   12624.0  298.192
   12636.0  299.034
   12648.0  299.878
   12660.0  300.723
   12672.0  301.570
   12684.0  302.418
   12696.0  303.268
   12708.0  304.120
   12720.0  304.972
   12732.0  305.827
   12744.0  306.683
   12756.0  307.541
   12768.0  308.400
   12780.0  309.261
   12792.0  310.123
   12804.0  310.987
   12816.0  311.852
   12828.0  312.720
   12840.0  313.589
   12852.0  314.460
   12864.0  315.332
   12876.0  316.206
   12888.0  317.081
   12900.0  317.958
   12912.0  318.836
   12924.0  319.716
   12936.0  320.598
   12948.0  321.481
   12960.0  322.366
   12972.0  323.252
   12984.0  324.140
   12996.0  325.030
   13008.0  325.921
   13020.0  326.814
   13032.0  327.709
   13044.0  328.606
   13056.0  329.504
   13068.0  330.404
   13080.0  331.306
   13092.0  332.210
   13104.0  333.115
   13116.0  334.022
   13128.0  334.930
   13140.0  335.840
   13152.0  336.751
   13164.0  337.664
   13176.0  338.579
   13188.0  339.495
   13200.0  340.413
   13212.0  341.333
   13224.0  342.254
   13236.0  343.176
   13248.0  344.101
   13260.0  345.027
   13272.0  345.956
   13284.0  346.885
   13296.0  347.816
   13308.0  348.749
   13320.0  349.684
   13332.0  350.620
   13344.0  351.558
   13356.0  352.497
   13368.0  353.438
   13380.0  354.381
   13392.0  355.325
   13404.0  356.271
   13416.0  357.219
   13428.0  358.168
   13440.0  359.119
   13452.0  360.071
   13464.0  361.026
   13476.0  361.984
   13488.0  362.942
   13500.0  363.901
   13512.0  364.863
   13524.0  365.827
   13536.0  366.792
   13548.0  367.758
   13560.0  368.726
   13572.0  369.697
   13584.0  370.668
   13596.0  371.642
   13608.0  372.616
   13620.0  373.593
   13632.0  374.571
   13644.0  375.551
   13656.0  376.532
   13668.0  377.516
   13680.0  378.501
   13692.0  379.488
   13704.0  380.477
   13716.0  381.467
   13728.0  382.459
   13740.0  383.453
   13752.0  384.448
   13764.0  385.445
   13776.0  386.444
   13788.0  387.445
   13800.0  388.447
   13812.0  389.450
   13824.0  390.456
   13836.0  391.463
   13848.0  392.472
   13860.0  393.482
   13872.0  394.495
   13884.0  395.508
   13896.0  396.524
   13908.0  397.543
   13920.0  398.563
   13932.0  399.585
   13944.0  400.608
   13956.0  401.633
   13968.0  402.660
   13980.0  403.689
   13992.0  404.719
   14004.0  405.751
   14016.0  406.784
   14028.0  407.820
   14040.0  408.857
   14052.0  409.895
   14064.0  410.936
   14076.0  411.978
   14088.0  413.022
   14100.0  414.068
   14112.0  415.115
   14124.0  416.164
   14136.0  417.216
   14148.0  418.268
   14160.0  419.323
   14172.0  420.381
   14184.0  421.438
   14196.0  422.499
   14208.0  423.560
   14220.0  424.624
   14232.0  425.689
   14244.0  426.755
   14256.0  427.824
   14268.0  428.895
   14280.0  429.967
   14292.0  431.040
   14304.0  432.116
   14316.0  433.193
   14328.0  434.272
   14340.0  435.353
   14352.0  436.436
   14364.0  437.522
   14376.0  438.609
   14388.0  439.698
   14400.0  440.789
   14412.0  441.881
   14424.0  442.975
   14436.0  444.071
   14448.0  445.168
   14460.0  446.268
   14472.0  447.369
   14484.0  448.472
   14496.0  449.577
   14508.0  450.683
   14520.0  451.791
   14532.0  452.901
   14544.0  454.013
   14556.0  455.126
   14568.0  456.241
   14580.0  457.358
   14592.0  458.478
   14604.0  459.598
   14616.0  460.721
   14628.0  461.845
   14640.0  462.972
   14652.0  464.100
   14664.0  465.230
   14676.0  466.361
   14688.0  467.494
   14700.0  468.630
   14712.0  469.766
   14724.0  470.905
   14736.0  472.046
   14748.0  473.187
   14760.0  474.331
   14772.0  475.477
   14784.0  476.625
   14796.0  477.773
   14808.0  478.924
   14820.0  480.079
   14832.0  481.235
   14844.0  482.393
   14856.0  483.553
   14868.0  484.714
   14880.0  485.878
   14892.0  487.042
   14904.0  488.209
   14916.0  489.377
   14928.0  490.548
   14940.0  491.720
   14952.0  492.894
   14964.0  494.070
   14976.0  495.248
   14988.0  496.427
   15000.0  497.608
