# C Density=2.2, Angle=90.deg
# Photon Energy (eV), Atten Length (microns)
   8000.00  1036.45
   8010.08  1040.53
   8020.18  1044.63
   8030.29  1048.74
   8040.41  1052.86
   8050.55  1057.01
   8060.70  1061.17
   8070.86  1065.34
   8081.03  1069.54
   8091.22  1073.75
   8101.42  1077.97
   8111.63  1082.21
   8121.85  1086.47
   8132.09  1090.74
   8142.34  1095.03
   8152.61  1099.34
   8162.88  1103.66
   8173.17  1108.00
   8183.47  1112.36
   8193.79  1116.73
   8204.12  1121.12
   8214.46  1125.53
   8224.81  1129.96
   8235.18  1134.40
   8245.56  1138.86
   8255.96  1143.34
   8266.36  1147.83
   8276.78  1152.34
   8287.22  1156.87
   8297.66  1161.41
   8308.12  1165.97
   8318.59  1170.55
   8329.08  1175.16
   8339.58  1179.78
   8350.09  1184.41
   8360.62  1189.07
   8371.16  1193.74
   8381.71  1198.43
   8392.27  1203.13
   8402.85  1207.86
   8413.45  1212.60
   8424.05  1217.36
   8434.67  1222.14
   8445.30  1226.94
   8455.95  1231.75
   8466.61  1236.59
   8477.28  1241.45
   8487.96  1246.32
   8498.66  1251.21
   8509.38  1256.12
   8520.10  1261.05
   8530.84  1265.99
   8541.60  1270.96
   8552.36  1275.94
   8563.14  1280.94
   8573.94  1285.96
   8584.75  1291.00
   8595.57  1296.07
   8606.40  1301.15
   8617.25  1306.25
   8628.11  1311.37
   8638.99  1316.51
   8649.88  1321.67
   8660.78  1326.85
   8671.70  1332.05
   8682.63  1337.26
   8693.57  1342.50
   8704.53  1347.76
   8715.50  1353.03
   8726.49  1358.33
   8737.49  1363.65
   8748.50  1369.00
   8759.53  1374.36
   8770.57  1379.74
   8781.63  1385.15
   8792.70  1390.57
   8803.78  1396.01
   8814.88  1401.48
   8825.99  1406.96
   8837.12  1412.46
   8848.26  1417.98
   8859.41  1423.53
   8870.58  1429.10
   8881.76  1434.69
   8892.96  1440.31
   8904.17  1445.94
   8915.39  1451.60
   8926.63  1457.27
   8937.88  1462.97
   8949.15  1468.69
   8960.43  1474.43
   8971.72  1480.19
   8983.03  1485.97
   8994.35  1491.77
   9005.69  1497.60
   9017.04  1503.45
   9028.41  1509.33
   9039.79  1515.22
   9051.19  1521.14
   9062.59  1527.08
   9074.02  1533.04
   9085.46  1539.02
   9096.91  1545.02
   9108.38  1551.05
   9119.86  1557.10
   9131.35  1563.17
   9142.86  1569.26
   9154.39  1575.38
   9165.93  1581.52
   9177.48  1587.69
   9189.05  1593.88
   9200.63  1600.10
   9212.23  1606.33
   9223.84  1612.59
   9235.47  1618.88
   9247.11  1625.18
   9258.77  1631.51
   9270.44  1637.86
   9282.13  1644.24
   9293.83  1650.64
   9305.54  1657.06
   9317.27  1663.51
   9329.01  1669.98
   9340.77  1676.48
   9352.55  1683.00
   9364.34  1689.55
   9376.14  1696.12
   9387.96  1702.71
   9399.79  1709.33
   9411.64  1715.97
   9423.51  1722.63
   9435.39  1729.32
   9447.28  1736.03
   9459.19  1742.78
   9471.11  1749.55
   9483.05  1756.34
   9495.00  1763.16
   9506.97  1770.01
   9518.96  1776.88
   9530.96  1783.77
   9542.97  1790.69
   9555.00  1797.63
   9567.04  1804.60
   9579.10  1811.60
   9591.18  1818.62
   9603.27  1825.66
   9615.37  1832.75
   9627.49  1839.86
   9639.63  1846.99
   9651.78  1854.15
   9663.95  1861.34
   9676.13  1868.55
   9688.33  1875.79
   9700.54  1883.05
   9712.77  1890.35
   9725.01  1897.66
   9737.27  1905.01
   9749.54  1912.38
   9761.83  1919.77
   9774.14  1927.20
   9786.46  1934.65
   9798.79  1942.13
   9811.14  1949.64
   9823.51  1957.17
   9835.89  1964.73
   9848.29  1972.31
   9860.71  1979.93
   9873.14  1987.57
   9885.58  1995.24
   9898.04  2002.93
   9910.52  2010.66
   9923.01  2018.41
   9935.52  2026.20
   9948.04  2034.02
   9960.58  2041.86
   9973.14  2049.74
   9985.71  2057.64
   9998.30  2065.56
   10010.9  2073.53
   10023.5  2081.52
   10036.2  2089.55
   10048.8  2097.60
   10061.5  2105.68
   10074.2  2113.79
   10086.9  2121.94
   10099.6  2130.11
   10112.3  2138.32
   10125.0  2146.55
   10137.8  2154.82
   10150.6  2163.11
   10163.4  2171.43
   10176.2  2179.78
   10189.0  2188.16
   10201.9  2196.57
   10214.7  2205.01
   10227.6  2213.47
   10240.5  2221.98
   10253.4  2230.51
   10266.3  2239.09
   10279.3  2247.69
   10292.2  2256.32
   10305.2  2264.98
   10318.2  2273.67
   10331.2  2282.39
   10344.2  2291.14
   10357.3  2299.93
   10370.3  2308.74
   10383.4  2317.58
   10396.5  2326.46
   10409.6  2335.37
   10422.7  2344.31
   10435.8  2353.29
   10449.0  2362.30
   10462.2  2371.34
   10475.4  2380.41
   10488.6  2389.52
   10501.8  2398.65
   10515.0  2407.82
   10528.3  2417.02
   10541.5  2426.25
   10554.8  2435.51
   10568.1  2444.80
   10581.5  2454.14
   10594.8  2463.51
   10608.2  2472.91
   10621.5  2482.35
   10634.9  2491.81
   10648.3  2501.31
   10661.7  2510.85
   10675.2  2520.41
   10688.6  2530.01
   10702.1  2539.64
   10715.6  2549.31
   10729.1  2559.01
   10742.6  2568.73
   10756.2  2578.51
   10769.7  2588.32
   10783.3  2598.16
   10796.9  2608.03
   10810.5  2617.94
   10824.1  2627.89
   10837.8  2637.86
   10851.4  2647.87
   10865.1  2657.92
   10878.8  2668.00
   10892.5  2678.11
   10906.3  2688.26
   10920.0  2698.44
   10933.8  2708.67
   10947.6  2718.93
   10961.4  2729.22
   10975.2  2739.55
   10989.0  2749.92
   11002.9  2760.32
   11016.7  2770.76
   11030.6  2781.23
   11044.5  2791.74
   11058.4  2802.28
   11072.4  2812.86
   11086.3  2823.47
   11100.3  2834.13
   11114.3  2844.83
   11128.3  2855.56
   11142.3  2866.33
   11156.4  2877.14
   11170.4  2887.98
   11184.5  2898.86
   11198.6  2909.77
   11212.7  2920.72
   11226.9  2931.71
   11241.0  2942.74
   11255.2  2953.80
   11269.4  2964.89
   11283.6  2976.04
   11297.8  2987.22
   11312.1  2998.44
   11326.3  3009.70
   11340.6  3020.99
   11354.9  3032.32
   11369.2  3043.69
   11383.5  3055.10
   11397.9  3066.54
   11412.2  3078.02
   11426.6  3089.54
   11441.0  3101.10
   11455.5  3112.69
   11469.9  3124.34
   11484.4  3136.02
   11498.8  3147.74
   11513.3  3159.50
   11527.8  3171.29
   11542.4  3183.12
   11556.9  3194.99
   11571.5  3206.90
   11586.1  3218.85
   11600.7  3230.84
   11615.3  3242.87
   11629.9  3254.93
   11644.6  3267.04
   11659.3  3279.20
   11674.0  3291.40
   11688.7  3303.63
   11703.4  3315.90
   11718.2  3328.22
   11733.0  3340.57
   11747.7  3352.97
   11762.6  3365.39
   11777.4  3377.86
   11792.2  3390.38
   11807.1  3402.93
   11822.0  3415.52
   11836.9  3428.16
   11851.8  3440.85
   11866.7  3453.57
   11881.7  3466.34
   11896.7  3479.15
   11911.7  3492.00
   11926.7  3504.89
   11941.7  3517.82
   11956.8  3530.79
   11971.8  3543.79
   11986.9  3556.84
   12002.0  3569.93
   12017.2  3583.07
   12032.3  3596.25
   12047.5  3609.48
   12062.7  3622.74
   12077.9  3636.05
   12093.1  3649.40
   12108.3  3662.79
   12123.6  3676.22
   12138.9  3689.70
   12154.2  3703.21
   12169.5  3716.77
   12184.9  3730.36
   12200.2  3744.00
   12215.6  3757.68
   12231.0  3771.43
   12246.4  3785.22
   12261.8  3799.05
   12277.3  3812.92
   12292.8  3826.83
   12308.3  3840.79
   12323.8  3854.79
   12339.3  3868.83
   12354.9  3882.92
   12370.4  3897.05
   12386.0  3911.22
   12401.7  3925.42
   12417.3  3939.68
   12432.9  3953.99
   12448.6  3968.34
   12464.3  3982.74
   12480.0  3997.17
   12495.7  4011.66
   12511.5  4026.18
   12527.3  4040.75
   12543.1  4055.36
   12558.9  4070.02
   12574.7  4084.71
   12590.6  4099.46
   12606.4  4114.24
   12622.3  4129.08
   12638.2  4143.96
   12654.2  4158.90
   12670.1  4173.88
   12686.1  4188.90
   12702.1  4203.97
   12718.1  4219.08
   12734.1  4234.23
   12750.2  4249.43
   12766.2  4264.67
   12782.3  4279.96
   12798.4  4295.29
   12814.6  4310.67
   12830.7  4326.10
   12846.9  4341.57
   12863.1  4357.09
   12879.3  4372.65
   12895.5  4388.26
   12911.8  4403.92
   12928.1  4419.62
   12944.4  4435.36
   12960.7  4451.15
   12977.0  4466.98
   12993.4  4482.86
   13009.8  4498.79
   13026.2  4514.76
   13042.6  4530.80
   13059.0  4546.88
   13075.5  4563.01
   13092.0  4579.18
   13108.5  4595.39
   13125.0  4611.66
   13141.5  4627.96
   13158.1  4644.32
   13174.7  4660.72
   13191.3  4677.17
   13207.9  4693.66
   13224.6  4710.20
   13241.2  4726.79
   13257.9  4743.43
   13274.6  4760.11
   13291.4  4776.85
   13308.1  4793.63
   13324.9  4810.44
   13341.7  4827.31
   13358.5  4844.23
   13375.4  4861.19
   13392.2  4878.20
   13409.1  4895.26
   13426.0  4912.36
   13442.9  4929.51
   13459.9  4946.71
   13476.8  4963.97
   13493.8  4981.27
   13510.8  4998.62
   13527.9  5016.02
   13544.9  5033.46
   13562.0  5050.94
   13579.1  5068.48
   13596.2  5086.06
   13613.3  5103.69
   13630.5  5121.37
   13647.7  5139.09
   13664.9  5156.86
   13682.1  5174.68
   13699.4  5192.55
   13716.6  5210.47
   13733.9  5228.43
   13751.2  5246.44
   13768.6  5264.50
   13785.9  5282.60
   13803.3  5300.76
   13820.7  5318.94
   13838.1  5337.19
   13855.6  5355.48
   13873.0  5373.82
   13890.5  5392.20
   13908.0  5410.65
   13925.6  5429.15
   13943.1  5447.69
   13960.7  5466.29
   13978.3  5484.92
   13995.9  5503.61
   14013.5  5522.34
   14031.2  5541.12
   14048.9  5559.95
   14066.6  5578.81
   14084.3  5597.72
   14102.1  5616.69
   14119.9  5635.71
   14137.7  5654.78
   14155.5  5673.89
   14173.3  5693.05
   14191.2  5712.26
   14209.1  5731.52
   14227.0  5750.82
   14244.9  5770.17
   14262.9  5789.57
   14280.9  5809.01
   14298.9  5828.50
   14316.9  5848.03
   14334.9  5867.61
   14353.0  5887.25
   14371.1  5906.94
   14389.2  5926.68
   14407.4  5946.47
   14425.5  5966.31
   14443.7  5986.19
   14461.9  6006.12
   14480.1  6026.09
   14498.4  6046.11
   14516.7  6066.17
   14535.0  6086.29
   14553.3  6106.45
   14571.6  6126.65
   14590.0  6146.89
   14608.4  6167.20
   14626.8  6187.54
   14645.2  6207.94
   14663.7  6228.37
   14682.2  6248.86
   14700.7  6269.39
   14719.2  6289.96
   14737.8  6310.59
   14756.4  6331.26
   14775.0  6351.97
   14793.6  6372.73
   14812.2  6393.54
   14830.9  6414.41
   14849.6  6435.32
   14868.3  6456.28
   14887.1  6477.29
   14905.8  6498.34
   14924.6  6519.44
   14943.4  6540.58
   14962.3  6561.77
   14981.1  6583.01
   15000.0  6604.29
