# From: http://henke.lbl.gov/optical_constants/gastrn2.html
# N2 Pressure=760. Path=1. cm
# Photon Energy (eV), Transmission
    8000.0      0.99180
    8040.0      0.99193
    8080.0      0.99205
    8120.0      0.99217
    8160.0      0.99229
    8200.0      0.99241
    8240.0      0.99252
    8280.0      0.99263
    8320.0      0.99274
    8360.0      0.99285
    8400.0      0.99295
    8440.0      0.99306
    8480.0      0.99316
    8520.0      0.99326
    8560.0      0.99335
    8600.0      0.99345
    8640.0      0.99354
    8680.0      0.99363
    8720.0      0.99372
    8760.0      0.99381
    8800.0      0.99390
    8840.0      0.99398
    8880.0      0.99407
    8920.0      0.99415
    8960.0      0.99423
    9000.0      0.99431
    9040.0      0.99439
    9080.0      0.99446
    9120.0      0.99454
    9160.0      0.99461
    9200.0      0.99468
    9240.0      0.99475
    9280.0      0.99482
    9320.0      0.99489
    9360.0      0.99496
    9400.0      0.99503
    9440.0      0.99509
    9480.0      0.99515
    9520.0      0.99522
    9560.0      0.99528
    9600.0      0.99534
    9640.0      0.99540
    9680.0      0.99546
    9720.0      0.99551
    9760.0      0.99557
    9800.0      0.99563
    9840.0      0.99568
    9880.0      0.99573
    9920.0      0.99579
    9960.0      0.99584
    10000.      0.99589
    10040.      0.99594
    10080.      0.99599
    10120.      0.99604
    10160.      0.99609
    10200.      0.99613
    10240.      0.99618
    10280.      0.99622
    10320.      0.99627
    10360.      0.99631
    10400.      0.99636
    10440.      0.99640
    10480.      0.99644
    10520.      0.99648
    10560.      0.99652
    10600.      0.99656
    10640.      0.99660
    10680.      0.99664
    10720.      0.99668
    10760.      0.99672
    10800.      0.99675
    10840.      0.99679
    10880.      0.99683
    10920.      0.99686
    10960.      0.99690
    11000.      0.99693
    11040.      0.99696
    11080.      0.99700
    11120.      0.99703
    11160.      0.99706
    11200.      0.99710
    11240.      0.99713
    11280.      0.99716
    11320.      0.99719
    11360.      0.99722
    11400.      0.99725
    11440.      0.99728
    11480.      0.99731
    11520.      0.99733
    11560.      0.99736
    11600.      0.99739
    11640.      0.99742
    11680.      0.99744
    11720.      0.99747
    11760.      0.99749
    11800.      0.99752
    11840.      0.99755
    11880.      0.99757
    11920.      0.99759
    11960.      0.99762
    12000.      0.99764
    12040.      0.99767
    12080.      0.99769
    12120.      0.99771
    12160.      0.99773
    12200.      0.99776
    12240.      0.99778
    12280.      0.99780
    12320.      0.99782
    12360.      0.99784
    12400.      0.99786
    12440.      0.99788
    12480.      0.99790
    12520.      0.99792
    12560.      0.99794
    12600.      0.99796
    12640.      0.99798
    12680.      0.99800
    12720.      0.99802
    12760.      0.99804
    12800.      0.99806
    12840.      0.99807
    12880.      0.99809
    12920.      0.99811
    12960.      0.99813
    13000.      0.99814
    13040.      0.99816
    13080.      0.99818
    13120.      0.99819
    13160.      0.99821
    13200.      0.99822
    13240.      0.99824
    13280.      0.99826
    13320.      0.99827
    13360.      0.99829
    13400.      0.99830
    13440.      0.99832
    13480.      0.99833
    13520.      0.99834
    13560.      0.99836
    13600.      0.99837
    13640.      0.99839
    13680.      0.99840
    13720.      0.99841
    13760.      0.99843
    13800.      0.99844
    13840.      0.99845
    13880.      0.99847
    13920.      0.99848
    13960.      0.99849
    14000.      0.99850
